Time, V_g(t), V_g(0), V_g(t)/V_g(0)
0.002500, 0.065986, 0.065986, 100.000000
0.005000, 0.065985, 0.065986, 99.997547
0.007500, 0.065989, 0.065986, 100.004275
0.010000, 0.065991, 0.065986, 100.006578
0.012500, 0.065990, 0.065986, 100.005786
0.015000, 0.065988, 0.065986, 100.002775
0.017500, 0.065985, 0.065986, 99.997651
0.020000, 0.065980, 0.065986, 99.990793
0.022500, 0.065975, 0.065986, 99.983136
0.025000, 0.065969, 0.065986, 99.974547
0.027500, 0.065964, 0.065986, 99.965813
0.030000, 0.065958, 0.065986, 99.956811
0.032500, 0.065952, 0.065986, 99.948016
0.035000, 0.065947, 0.065986, 99.939796
0.037500, 0.065942, 0.065986, 99.932578
0.040000, 0.065938, 0.065986, 99.926790
0.042500, 0.065935, 0.065986, 99.921681
0.045000, 0.065932, 0.065986, 99.917765
0.047500, 0.065930, 0.065986, 99.914705
0.050000, 0.065928, 0.065986, 99.912152
0.052500, 0.065926, 0.065986, 99.909073
0.055000, 0.065923, 0.065986, 99.904467
0.057500, 0.065919, 0.065986, 99.898121
0.060000, 0.065913, 0.065986, 99.889658
0.062500, 0.065907, 0.065986, 99.879510
0.065000, 0.065900, 0.065986, 99.868686
0.067500, 0.065893, 0.065986, 99.858668
0.070000, 0.065887, 0.065986, 99.849836
0.072500, 0.065882, 0.065986, 99.841999
0.075000, 0.065878, 0.065986, 99.836687
0.077500, 0.065876, 0.065986, 99.833222
0.080000, 0.065876, 0.065986, 99.832281
0.082500, 0.065877, 0.065986, 99.834383
0.085000, 0.065881, 0.065986, 99.840632
0.087500, 0.065889, 0.065986, 99.852569
0.090000, 0.065902, 0.065986, 99.872539
0.092500, 0.065918, 0.065986, 99.897274
0.095000, 0.065936, 0.065986, 99.923991
0.097500, 0.065950, 0.065986, 99.945578
0.100000, 0.065958, 0.065986, 99.957077
0.102500, 0.065958, 0.065986, 99.956562
0.105000, 0.065950, 0.065986, 99.944570
0.107500, 0.065934, 0.065986, 99.920297
0.110000, 0.065912, 0.065986, 99.888232
0.112500, 0.065890, 0.065986, 99.854713
0.115000, 0.065869, 0.065986, 99.822144
0.117500, 0.065856, 0.065986, 99.802428
0.120000, 0.065846, 0.065986, 99.787108
0.122500, 0.065846, 0.065986, 99.787146
0.125000, 0.065843, 0.065986, 99.783323
0.127500, 0.065817, 0.065986, 99.743570
0.130000, 0.065419, 0.065986, 99.140699
0.132500, 0.064551, 0.065986, 97.825420
0.135000, 0.064144, 0.065986, 97.207781
0.137500, 0.064030, 0.065986, 97.035858
0.140000, 0.061659, 0.065986, 93.442833
0.142500, 0.062092, 0.065986, 94.098275
0.145000, 0.063043, 0.065986, 95.539278
0.147500, 0.064239, 0.065986, 97.351497
0.150000, 0.063893, 0.065986, 96.828317
0.152500, 0.068838, 0.065986, 104.321287
0.155000, 0.066096, 0.065986, 100.166381
0.157500, 0.065465, 0.065986, 99.209564
0.160000, 0.069321, 0.065986, 105.054079
0.162500, 0.068902, 0.065986, 104.418331
0.165000, 0.065013, 0.065986, 98.525665
0.167500, 0.073473, 0.065986, 111.346496
0.170000, 0.069714, 0.065986, 105.649254
0.172500, 0.067514, 0.065986, 102.315314
0.175000, 0.073272, 0.065986, 111.040883
0.177500, 0.066289, 0.065986, 100.458363
0.180000, 0.076955, 0.065986, 116.623212
0.182500, 0.076393, 0.065986, 115.770869
0.185000, 0.067839, 0.065986, 102.807225
0.187500, 0.074833, 0.065986, 113.406996
0.190000, 0.062903, 0.065986, 95.327954
0.192500, 0.079592, 0.065986, 120.619506
0.195000, 0.060886, 0.065986, 92.270982
0.197500, 0.080386, 0.065986, 121.822819
0.200000, 0.076810, 0.065986, 116.402977
0.202500, 0.070624, 0.065986, 107.028102
0.205000, 0.065226, 0.065986, 98.847138
0.207500, 0.066533, 0.065986, 100.828215
0.210000, 0.068365, 0.065986, 103.604523
0.212500, 0.066770, 0.065986, 101.187589
0.215000, 0.058375, 0.065986, 88.465409
0.217500, 0.069073, 0.065986, 104.677746
0.220000, 0.077292, 0.065986, 117.133811
0.222500, 0.086350, 0.065986, 130.860143
0.225000, 0.068000, 0.065986, 103.051782
0.227500, 0.072236, 0.065986, 109.470837
0.230000, 0.065375, 0.065986, 99.073680
0.232500, 0.075375, 0.065986, 114.228354
0.235000, 0.075375, 0.065986, 114.228354
0.237500, 0.067875, 0.065986, 102.862349
0.240000, 0.069875, 0.065986, 105.893283
0.242500, 0.068000, 0.065986, 103.051782
0.245000, 0.071375, 0.065986, 108.166485
0.247500, 0.055750, 0.065986, 84.487307
0.250000, 0.070375, 0.065986, 106.651017
Time, V_g(t), V_g(0), V_g(t)/V_g(0)
0.002500, 0.065986, 0.065986, 100.000000
0.005000, 0.065985, 0.065986, 99.997547
0.007500, 0.065989, 0.065986, 100.004275
0.010000, 0.065991, 0.065986, 100.006578
0.012500, 0.065990, 0.065986, 100.005786
0.015000, 0.065988, 0.065986, 100.002775
0.017500, 0.065985, 0.065986, 99.997651
0.020000, 0.065980, 0.065986, 99.990793
0.022500, 0.065975, 0.065986, 99.983136
0.025000, 0.065969, 0.065986, 99.974547
0.027500, 0.065964, 0.065986, 99.965813
0.030000, 0.065958, 0.065986, 99.956811
0.032500, 0.065952, 0.065986, 99.948016
0.035000, 0.065947, 0.065986, 99.939796
0.037500, 0.065942, 0.065986, 99.932578
0.040000, 0.065938, 0.065986, 99.926790
0.042500, 0.065935, 0.065986, 99.921681
0.045000, 0.065932, 0.065986, 99.917765
0.047500, 0.065930, 0.065986, 99.914705
0.050000, 0.065928, 0.065986, 99.912152
0.052500, 0.065926, 0.065986, 99.909073
0.055000, 0.065923, 0.065986, 99.904467
0.057500, 0.065919, 0.065986, 99.898121
0.060000, 0.065913, 0.065986, 99.889658
0.062500, 0.065907, 0.065986, 99.879510
0.065000, 0.065900, 0.065986, 99.868686
0.067500, 0.065893, 0.065986, 99.858668
0.070000, 0.065887, 0.065986, 99.849836
0.072500, 0.065882, 0.065986, 99.841999
0.075000, 0.065878, 0.065986, 99.836687
0.077500, 0.065876, 0.065986, 99.833222
0.080000, 0.065876, 0.065986, 99.832281
0.082500, 0.065877, 0.065986, 99.834383
0.085000, 0.065881, 0.065986, 99.840632
0.087500, 0.065889, 0.065986, 99.852569
0.090000, 0.065902, 0.065986, 99.872539
0.092500, 0.065918, 0.065986, 99.897274
0.095000, 0.065936, 0.065986, 99.923991
0.097500, 0.065950, 0.065986, 99.945578
0.100000, 0.065958, 0.065986, 99.957077
0.102500, 0.065958, 0.065986, 99.956562
0.105000, 0.065950, 0.065986, 99.944570
0.107500, 0.065934, 0.065986, 99.920297
0.110000, 0.065912, 0.065986, 99.888232
0.112500, 0.065890, 0.065986, 99.854713
0.115000, 0.065869, 0.065986, 99.822144
0.117500, 0.065856, 0.065986, 99.802428
0.120000, 0.065846, 0.065986, 99.787108
0.122500, 0.065846, 0.065986, 99.787146
0.125000, 0.065843, 0.065986, 99.783323
0.127500, 0.065817, 0.065986, 99.743570
0.130000, 0.065419, 0.065986, 99.140699
0.132500, 0.064551, 0.065986, 97.825420
0.135000, 0.064144, 0.065986, 97.207781
0.137500, 0.064030, 0.065986, 97.035858
0.140000, 0.061659, 0.065986, 93.442833
0.142500, 0.062092, 0.065986, 94.098275
0.145000, 0.063043, 0.065986, 95.539278
0.147500, 0.064239, 0.065986, 97.351497
0.150000, 0.063893, 0.065986, 96.828317
0.152500, 0.068838, 0.065986, 104.321287
0.155000, 0.066096, 0.065986, 100.166381
0.157500, 0.065465, 0.065986, 99.209564
0.160000, 0.069321, 0.065986, 105.054079
0.162500, 0.068902, 0.065986, 104.418331
0.165000, 0.065013, 0.065986, 98.525665
0.167500, 0.073473, 0.065986, 111.346496
0.170000, 0.069714, 0.065986, 105.649254
0.172500, 0.067514, 0.065986, 102.315314
0.175000, 0.073272, 0.065986, 111.040883
0.177500, 0.066289, 0.065986, 100.458363
0.180000, 0.076955, 0.065986, 116.623212
0.182500, 0.076393, 0.065986, 115.770869
0.185000, 0.067839, 0.065986, 102.807225
0.187500, 0.074833, 0.065986, 113.406996
0.190000, 0.062903, 0.065986, 95.327954
0.192500, 0.079592, 0.065986, 120.619506
0.195000, 0.060886, 0.065986, 92.270982
0.197500, 0.080386, 0.065986, 121.822819
0.200000, 0.076810, 0.065986, 116.402977
0.202500, 0.070624, 0.065986, 107.028102
0.205000, 0.065226, 0.065986, 98.847138
0.207500, 0.066533, 0.065986, 100.828215
0.210000, 0.068365, 0.065986, 103.604523
0.212500, 0.066770, 0.065986, 101.187589
0.215000, 0.058375, 0.065986, 88.465409
0.217500, 0.069073, 0.065986, 104.677746
0.220000, 0.077292, 0.065986, 117.133811
0.222500, 0.086350, 0.065986, 130.860143
0.225000, 0.068000, 0.065986, 103.051782
0.227500, 0.072236, 0.065986, 109.470837
0.230000, 0.065375, 0.065986, 99.073680
0.232500, 0.075375, 0.065986, 114.228354
0.235000, 0.075375, 0.065986, 114.228354
0.237500, 0.067875, 0.065986, 102.862349
0.240000, 0.069875, 0.065986, 105.893283
0.242500, 0.068000, 0.065986, 103.051782
0.245000, 0.071375, 0.065986, 108.166485
0.247500, 0.055750, 0.065986, 84.487307
0.250000, 0.070375, 0.065986, 106.651017
Time, V_g(t), V_g(0), V_g(t)/V_g(0)
0.000250, 0.065986, 0.065986, 100.000000
0.000500, 0.065983, 0.065986, 99.995427
0.000750, 0.065983, 0.065986, 99.995602
0.001000, 0.065983, 0.065986, 99.995694
0.001250, 0.065983, 0.065986, 99.995774
0.001500, 0.065984, 0.065986, 99.995848
0.001750, 0.065984, 0.065986, 99.995918
0.002000, 0.065984, 0.065986, 99.995984
0.002250, 0.065984, 0.065986, 99.996047
0.002500, 0.065984, 0.065986, 99.996108
0.002750, 0.065984, 0.065986, 99.996166
0.003000, 0.065984, 0.065986, 99.996222
0.003250, 0.065984, 0.065986, 99.996276
0.003500, 0.065984, 0.065986, 99.996328
0.003750, 0.065984, 0.065986, 99.996379
0.004000, 0.065984, 0.065986, 99.996427
0.004250, 0.065984, 0.065986, 99.996473
0.004500, 0.065984, 0.065986, 99.996518
0.004750, 0.065984, 0.065986, 99.996561
0.005000, 0.065984, 0.065986, 99.996603
0.005250, 0.065984, 0.065986, 99.996642
0.005500, 0.065984, 0.065986, 99.996680
0.005750, 0.065984, 0.065986, 99.996717
0.006000, 0.065984, 0.065986, 99.996751
0.006250, 0.065984, 0.065986, 99.996784
0.006500, 0.065984, 0.065986, 99.996815
0.006750, 0.065984, 0.065986, 99.996844
0.007000, 0.065984, 0.065986, 99.996870
0.007250, 0.065984, 0.065986, 99.996895
0.007500, 0.065984, 0.065986, 99.996918
0.007750, 0.065984, 0.065986, 99.996938
0.008000, 0.065984, 0.065986, 99.996956
0.008250, 0.065984, 0.065986, 99.996971
0.008500, 0.065984, 0.065986, 99.996984
0.008750, 0.065984, 0.065986, 99.996995
0.009000, 0.065984, 0.065986, 99.997003
0.009250, 0.065984, 0.065986, 99.997009
0.009500, 0.065984, 0.065986, 99.997012
0.009750, 0.065984, 0.065986, 99.997013
0.010000, 0.065984, 0.065986, 99.997011
0.010250, 0.065984, 0.065986, 99.997008
0.010500, 0.065984, 0.065986, 99.997002
0.010750, 0.065984, 0.065986, 99.996995
0.011000, 0.065984, 0.065986, 99.996985
0.011250, 0.065984, 0.065986, 99.996973
0.011500, 0.065984, 0.065986, 99.996960
0.011750, 0.065984, 0.065986, 99.996944
0.012000, 0.065984, 0.065986, 99.996927
0.012250, 0.065984, 0.065986, 99.996908
0.012500, 0.065984, 0.065986, 99.996888
0.012750, 0.065984, 0.065986, 99.996866
0.013000, 0.065984, 0.065986, 99.996843
0.013250, 0.065984, 0.065986, 99.996819
0.013500, 0.065984, 0.065986, 99.996794
0.013750, 0.065984, 0.065986, 99.996768
0.014000, 0.065984, 0.065986, 99.996741
0.014250, 0.065984, 0.065986, 99.996713
0.014500, 0.065984, 0.065986, 99.996685
0.014750, 0.065984, 0.065986, 99.996656
0.015000, 0.065984, 0.065986, 99.996627
0.015250, 0.065984, 0.065986, 99.996598
0.015500, 0.065984, 0.065986, 99.996568
0.015750, 0.065984, 0.065986, 99.996538
0.016000, 0.065984, 0.065986, 99.996507
0.016250, 0.065984, 0.065986, 99.996476
0.016500, 0.065984, 0.065986, 99.996445
0.016750, 0.065984, 0.065986, 99.996412
0.017000, 0.065984, 0.065986, 99.996380
0.017250, 0.065984, 0.065986, 99.996347
0.017500, 0.065984, 0.065986, 99.996313
0.017750, 0.065984, 0.065986, 99.996278
0.018000, 0.065984, 0.065986, 99.996243
0.018250, 0.065984, 0.065986, 99.996207
0.018500, 0.065984, 0.065986, 99.996170
0.018750, 0.065984, 0.065986, 99.996132
0.019000, 0.065984, 0.065986, 99.996094
0.019250, 0.065984, 0.065986, 99.996055
0.019500, 0.065984, 0.065986, 99.996015
0.019750, 0.065984, 0.065986, 99.995975
0.020000, 0.065984, 0.065986, 99.995933
0.020250, 0.065984, 0.065986, 99.995891
0.020500, 0.065984, 0.065986, 99.995848
0.020750, 0.065983, 0.065986, 99.995805
0.021000, 0.065983, 0.065986, 99.995761
0.021250, 0.065983, 0.065986, 99.995716
0.021500, 0.065983, 0.065986, 99.995670
0.021750, 0.065983, 0.065986, 99.995623
0.022000, 0.065983, 0.065986, 99.995576
0.022250, 0.065983, 0.065986, 99.995528
0.022500, 0.065983, 0.065986, 99.995479
0.022750, 0.065983, 0.065986, 99.995429
0.023000, 0.065983, 0.065986, 99.995379
0.023250, 0.065983, 0.065986, 99.995328
0.023500, 0.065983, 0.065986, 99.995276
0.023750, 0.065983, 0.065986, 99.995224
0.024000, 0.065983, 0.065986, 99.995171
0.024250, 0.065983, 0.065986, 99.995117
0.024500, 0.065983, 0.065986, 99.995030
0.024750, 0.065983, 0.065986, 99.994916
0.025000, 0.065983, 0.065986, 99.994867
0.025250, 0.065983, 0.065986, 99.994812
0.025500, 0.065983, 0.065986, 99.994754
0.025750, 0.065983, 0.065986, 99.994692
0.026000, 0.065983, 0.065986, 99.994628
0.026250, 0.065983, 0.065986, 99.994563
0.026500, 0.065983, 0.065986, 99.994503
0.026750, 0.065983, 0.065986, 99.994449
0.027000, 0.065983, 0.065986, 99.994519
0.027250, 0.065983, 0.065986, 99.994523
0.027500, 0.065983, 0.065986, 99.994435
0.027750, 0.065983, 0.065986, 99.994406
0.028000, 0.065982, 0.065986, 99.994319
0.028250, 0.065982, 0.065986, 99.994287
0.028500, 0.065982, 0.065986, 99.994200
0.028750, 0.065982, 0.065986, 99.994165
0.029000, 0.065982, 0.065986, 99.994080
0.029250, 0.065982, 0.065986, 99.994042
0.029500, 0.065982, 0.065986, 99.993957
0.029750, 0.065982, 0.065986, 99.993898
0.030000, 0.065982, 0.065986, 99.993854
0.030250, 0.065982, 0.065986, 99.993772
0.030500, 0.065982, 0.065986, 99.993726
0.030750, 0.065982, 0.065986, 99.993646
0.031000, 0.065982, 0.065986, 99.993596
0.031250, 0.065982, 0.065986, 99.993517
0.031500, 0.065982, 0.065986, 99.993463
0.031750, 0.065982, 0.065986, 99.993394
0.032000, 0.065982, 0.065986, 99.993326
0.032250, 0.065982, 0.065986, 99.993256
0.032500, 0.065982, 0.065986, 99.993184
0.032750, 0.065982, 0.065986, 99.993111
0.033000, 0.065982, 0.065986, 99.993036
0.033250, 0.065982, 0.065986, 99.992960
0.033500, 0.065982, 0.065986, 99.992903
0.033750, 0.065982, 0.065986, 99.992870
0.034000, 0.065981, 0.065986, 99.992792
0.034250, 0.065981, 0.065986, 99.992713
0.034500, 0.065981, 0.065986, 99.992634
0.034750, 0.065981, 0.065986, 99.992560
0.035000, 0.065981, 0.065986, 99.992493
0.035250, 0.065981, 0.065986, 99.992433
0.035500, 0.065981, 0.065986, 99.992377
0.035750, 0.065981, 0.065986, 99.992316
0.036000, 0.065981, 0.065986, 99.992252
0.036250, 0.065981, 0.065986, 99.992191
0.036500, 0.065981, 0.065986, 99.992137
0.036750, 0.065981, 0.065986, 99.992086
0.037000, 0.065981, 0.065986, 99.992031
0.037250, 0.065981, 0.065986, 99.991972
0.037500, 0.065981, 0.065986, 99.991916
0.037750, 0.065981, 0.065986, 99.991867
0.038000, 0.065981, 0.065986, 99.991822
0.038250, 0.065981, 0.065986, 99.991777
0.038500, 0.065981, 0.065986, 99.991720
0.038750, 0.065981, 0.065986, 99.991665
0.039000, 0.065981, 0.065986, 99.991611
0.039250, 0.065981, 0.065986, 99.991556
0.039500, 0.065981, 0.065986, 99.991484
0.039750, 0.065981, 0.065986, 99.991435
0.040000, 0.065981, 0.065986, 99.991380
0.040250, 0.065981, 0.065986, 99.991329
0.040500, 0.065980, 0.065986, 99.991268
0.040750, 0.065980, 0.065986, 99.991204
0.041000, 0.065980, 0.065986, 99.991145
0.041250, 0.065980, 0.065986, 99.991084
0.041500, 0.065980, 0.065986, 99.991031
0.041750, 0.065980, 0.065986, 99.990980
0.042000, 0.065980, 0.065986, 99.990910
0.042250, 0.065980, 0.065986, 99.990838
0.042500, 0.065980, 0.065986, 99.990763
0.042750, 0.065980, 0.065986, 99.990688
0.043000, 0.065980, 0.065986, 99.990612
0.043250, 0.065980, 0.065986, 99.990537
0.043500, 0.065980, 0.065986, 99.990462
0.043750, 0.065980, 0.065986, 99.990388
0.044000, 0.065980, 0.065986, 99.990315
0.044250, 0.065980, 0.065986, 99.990247
0.044500, 0.065980, 0.065986, 99.990153
0.044750, 0.065980, 0.065986, 99.990039
0.045000, 0.065980, 0.065986, 99.989993
0.045250, 0.065980, 0.065986, 99.989941
0.045500, 0.065980, 0.065986, 99.989888
0.045750, 0.065980, 0.065986, 99.989834
0.046000, 0.065979, 0.065986, 99.989778
0.046250, 0.065979, 0.065986, 99.989722
0.046500, 0.065979, 0.065986, 99.989666
0.046750, 0.065979, 0.065986, 99.989609
0.047000, 0.065979, 0.065986, 99.989552
0.047250, 0.065979, 0.065986, 99.989493
0.047500, 0.065979, 0.065986, 99.989433
0.047750, 0.065979, 0.065986, 99.989373
0.048000, 0.065979, 0.065986, 99.989313
0.048250, 0.065979, 0.065986, 99.989251
0.048500, 0.065979, 0.065986, 99.989189
0.048750, 0.065979, 0.065986, 99.989127
0.049000, 0.065979, 0.065986, 99.989064
0.049250, 0.065979, 0.065986, 99.989001
0.049500, 0.065979, 0.065986, 99.988938
0.049750, 0.065979, 0.065986, 99.988872
0.050000, 0.065979, 0.065986, 99.988804
0.050250, 0.065979, 0.065986, 99.988729
0.050500, 0.065979, 0.065986, 99.988646
0.050750, 0.065979, 0.065986, 99.988553
0.051000, 0.065979, 0.065986, 99.988460
0.051250, 0.065979, 0.065986, 99.988378
0.051500, 0.065979, 0.065986, 99.988305
0.051750, 0.065978, 0.065986, 99.988230
0.052000, 0.065978, 0.065986, 99.988149
0.052250, 0.065978, 0.065986, 99.988070
0.052500, 0.065978, 0.065986, 99.987983
0.052750, 0.065978, 0.065986, 99.987884
0.053000, 0.065978, 0.065986, 99.987799
0.053250, 0.065978, 0.065986, 99.987755
0.053500, 0.065978, 0.065986, 99.987704
0.053750, 0.065978, 0.065986, 99.987625
0.054000, 0.065978, 0.065986, 99.987526
0.054250, 0.065978, 0.065986, 99.987427
0.054500, 0.065978, 0.065986, 99.987322
0.054750, 0.065978, 0.065986, 99.987216
0.055000, 0.065978, 0.065986, 99.987112
0.055250, 0.065978, 0.065986, 99.987009
0.055500, 0.065978, 0.065986, 99.986908
0.055750, 0.065978, 0.065986, 99.986810
0.056000, 0.065977, 0.065986, 99.986715
0.056250, 0.065977, 0.065986, 99.986623
0.056500, 0.065977, 0.065986, 99.986530
0.056750, 0.065977, 0.065986, 99.986437
0.057000, 0.065977, 0.065986, 99.986341
0.057250, 0.065977, 0.065986, 99.986242
0.057500, 0.065977, 0.065986, 99.986137
0.057750, 0.065977, 0.065986, 99.986026
0.058000, 0.065977, 0.065986, 99.985906
0.058250, 0.065977, 0.065986, 99.985779
0.058500, 0.065977, 0.065986, 99.985646
0.058750, 0.065977, 0.065986, 99.985513
0.059000, 0.065977, 0.065986, 99.985383
0.059250, 0.065977, 0.065986, 99.985258
0.059500, 0.065976, 0.065986, 99.985138
0.059750, 0.065976, 0.065986, 99.985023
0.060000, 0.065976, 0.065986, 99.984912
0.060250, 0.065976, 0.065986, 99.984803
0.060500, 0.065976, 0.065986, 99.984698
0.060750, 0.065976, 0.065986, 99.984603
0.061000, 0.065976, 0.065986, 99.984520
0.061250, 0.065976, 0.065986, 99.984429
0.061500, 0.065976, 0.065986, 99.984326
0.061750, 0.065976, 0.065986, 99.984210
0.062000, 0.065976, 0.065986, 99.984095
0.062250, 0.065976, 0.065986, 99.983997
0.062500, 0.065976, 0.065986, 99.983907
0.062750, 0.065976, 0.065986, 99.983790
0.063000, 0.065975, 0.065986, 99.983650
0.063250, 0.065975, 0.065986, 99.983517
0.063500, 0.065975, 0.065986, 99.983395
0.063750, 0.065975, 0.065986, 99.983282
0.064000, 0.065975, 0.065986, 99.983176
0.064250, 0.065975, 0.065986, 99.983078
0.064500, 0.065975, 0.065986, 99.982985
0.064750, 0.065975, 0.065986, 99.982896
0.065000, 0.065975, 0.065986, 99.982810
0.065250, 0.065975, 0.065986, 99.982726
0.065500, 0.065975, 0.065986, 99.982644
0.065750, 0.065975, 0.065986, 99.982563
0.066000, 0.065975, 0.065986, 99.982482
0.066250, 0.065975, 0.065986, 99.982401
0.066500, 0.065975, 0.065986, 99.982321
0.066750, 0.065975, 0.065986, 99.982244
0.067000, 0.065974, 0.065986, 99.982169
0.067250, 0.065974, 0.065986, 99.982095
0.067500, 0.065974, 0.065986, 99.982022
0.067750, 0.065974, 0.065986, 99.981950
0.068000, 0.065974, 0.065986, 99.981880
0.068250, 0.065974, 0.065986, 99.981812
0.068500, 0.065974, 0.065986, 99.981746
0.068750, 0.065974, 0.065986, 99.981685
0.069000, 0.065974, 0.065986, 99.981627
0.069250, 0.065974, 0.065986, 99.981573
0.069500, 0.065974, 0.065986, 99.981520
0.069750, 0.065974, 0.065986, 99.981466
0.070000, 0.065974, 0.065986, 99.981408
0.070250, 0.065974, 0.065986, 99.981290
0.070500, 0.065974, 0.065986, 99.981213
0.070750, 0.065974, 0.065986, 99.981171
0.071000, 0.065974, 0.065986, 99.981134
0.071250, 0.065974, 0.065986, 99.981100
0.071500, 0.065974, 0.065986, 99.981066
0.071750, 0.065974, 0.065986, 99.981032
0.072000, 0.065974, 0.065986, 99.980994
0.072250, 0.065974, 0.065986, 99.980955
0.072500, 0.065974, 0.065986, 99.980915
0.072750, 0.065974, 0.065986, 99.980875
0.073000, 0.065974, 0.065986, 99.980838
0.073250, 0.065974, 0.065986, 99.980804
0.073500, 0.065974, 0.065986, 99.980773
0.073750, 0.065974, 0.065986, 99.980748
